Wellenlaenge (nm),Bestrahlungsstaerke (W/m^2)
380,0.000691753396067681
381,0.000695106885430104
382,0.000702022469205279
383,0.000710818712125691
384,0.000718693222078812
385,0.000724148910390582
386,0.00072759580275189
387,0.00072843952687839
388,0.000730204983972181
389,0.000738459765047665
390,0.000756544424713483
391,0.000783574699587899
392,0.000819565179760476
393,0.000862044983914746
394,0.000906895976523262
395,0.000951173038578705
396,0.00099518065126803
397,0.00103908857109513
398,0.00108062530246799
399,0.00111679541555131
400,0.00114580165244393
401,0.00116747905793041
402,0.00118098845206825
403,0.00118913122791655
404,0.00119657637390718
405,0.00120626480907078
406,0.00121769206518415
407,0.00123122308449897
408,0.00124545173367146
409,0.00125780191384278
410,0.00126672796569763
411,0.00127271317652297
412,0.00127562929413768
413,0.00127666694275121
414,0.00127781049604604
415,0.00128022939729537
416,0.0012836770492828
417,0.001288421230161
418,0.00129305950635791
419,0.00129528979014721
420,0.0012937308288931
421,0.00128900179676877
422,0.00128153770766262
423,0.00127166562614885
424,0.00125993065985117
425,0.00124703245030058
426,0.00123305461536495
427,0.00121754096021963
428,0.00120389018985822
429,0.00119714585100876
430,0.00120033407170806
431,0.00121302804196469
432,0.00123574272626976
433,0.00126536384208677
434,0.00129670091852158
435,0.00132629648091414
436,0.00135463610892232
437,0.00138157741501181
438,0.00140680276048351
439,0.00143035473437816
440,0.00145225889012022
441,0.00147197094623992
442,0.00148882950240069
443,0.00150401468698441
444,0.00151949338062756
445,0.00153638700990014
446,0.00155443606840101
447,0.00157395876434319
448,0.00159318795122595
449,0.00160927622123452
450,0.00162051512968006
451,0.00162724820902612
452,0.0016292078995608
453,0.0016280266732213
454,0.00162642531656961
455,0.0016261203276054
456,0.00162681882236618
457,0.00162872965875199
458,0.00163106062544998
459,0.00163235132683466
460,0.00163172552553074
461,0.00162956218357017
462,0.00162599265131673
463,0.00162138285374997
464,0.00161634266583585
465,0.0016113240906234
466,0.0016062883743445
467,0.00160118819269779
468,0.00159651840139845
469,0.00159296029652264
470,0.00159092265571606
471,0.00159030917355959
472,0.001591069212119
473,0.00159294093710195
474,0.00159548795802117
475,0.00159831338139706
476,0.00160141555041318
477,0.00160493118107322
478,0.00160777151579699
479,0.00160834705726291
480,0.00160570410707805
481,0.0016000197682598
482,0.00159123809883189
483,0.00158019163614613
484,0.00156826794245555
485,0.00155647500131293
486,0.00154471648372829
487,0.00153291327249064
488,0.00152198729225781
489,0.00151318267379125
490,0.00150724589554782
491,0.0015041651782349
492,0.00150415431490023
493,0.00150626481333183
494,0.00150891585317639
495,0.00151105083393931
496,0.00151281621074997
497,0.00151417363676159
498,0.00151499052136026
499,0.00151522606066044
500,0.0015148557723308
501,0.00151374030471261
502,0.0015117159950287
503,0.0015091103400463
504,0.00150646916771077
505,0.00150412707825998
506,0.00150202141372871
507,0.00150020772861155
508,0.00149842956084751
509,0.00149624763455058
510,0.00149339838418915
511,0.00149002611458033
512,0.00148625277187462
513,0.00148207567063602
514,0.00147749033513785
515,0.00147257572679603
516,0.00146736504143851
517,0.00146174343638542
518,0.00145653006559189
519,0.00145295410756331
520,0.0014517530694029
521,0.00145275970909501
522,0.00145598407064794
523,0.00146084584496581
524,0.00146637785022216
525,0.0014718657311334
526,0.00147737193104364
527,0.00148296805279646
528,0.00148789394361081
529,0.00149110609249775
530,0.0014919783928639
531,0.0014905493734684
532,0.0014866812832987
533,0.00148109945120158
534,0.00147501275858835
535,0.00146924750640902
536,0.00146369901773551
537,0.00145837099739267
538,0.00145354783756594
539,0.00144953523839235
540,0.00144651661995414
541,0.00144452336424095
542,0.00144360712075757
543,0.00144350143792734
544,0.00144376222978914
545,0.00144404974982791
546,0.00144438797038361
547,0.00144482621405468
548,0.00144489798303372
549,0.00144394793920572
550,0.00144158287970168
551,0.00143782391601855
552,0.00143256530335488
553,0.00142628487788417
554,0.00141977903322893
555,0.00141357068939956
556,0.00140758231269613
557,0.00140184635298167
558,0.00139633581245175
559,0.00139093055503745
560,0.00138555849909745
561,0.00138032755132039
562,0.00137535617549452
563,0.00137049008278429
564,0.00136547212513043
565,0.00136017838668612
566,0.00135465187441397
567,0.00134881920836264
568,0.00134313840725494
569,0.00133832221398097
570,0.0013347982742748
571,0.00133241630643874
572,0.00133109588693136
573,0.00133064007525771
574,0.00133072063725957
575,0.00133103335770689
576,0.00133157471480462
577,0.00133245550508292
578,0.00133279992168572
579,0.00133132707774472
580,0.00132726844113898
581,0.00132079361895006
582,0.00131190943575064
583,0.00130120799200744
584,0.00128967612183163
585,0.00127807201097644
586,0.00126634367346313
587,0.00125437700998391
588,0.0012432407729373
589,0.00123443940750996
590,0.0012288755808139
591,0.00122648871845903
592,0.00122749996958862
593,0.00123084609233748
594,0.00123475501693031
595,0.00123805094113313
596,0.00124090148917146
597,0.00124325159718858
598,0.00124503890336173
599,0.00124634707193431
600,0.00124722630145236
601,0.00124751157850134
602,0.00124703806782238
603,0.00124608541954285
604,0.00124511971720836
605,0.00124442322175726
606,0.00124394104748849
607,0.00124372546929213
608,0.00124352294515073
609,0.00124290655368355
610,0.00124162014206217
611,0.00123970732306226
612,0.00123709849756491
613,0.0012340758047418
614,0.00123110947654568
615,0.0012284703792228
616,0.00122609757576868
617,0.00122406327611321
618,0.00122197261183075
619,0.00121918625708757
620,0.00121532061638343
621,0.00121051790568848
622,0.00120484592715332
623,0.00119847825815744
624,0.00119170419433333
625,0.00118477859202613
626,0.0011776992473462
627,0.00117038708521753
628,0.00116348131791709
629,0.00115791183429708
630,0.00115423656766883
631,0.00115235898141044
632,0.00115232322750609
633,0.00115362375728218
634,0.00115541798961601
635,0.00115710163532241
636,0.00115873630793149
637,0.00116035913442469
638,0.00116148825836015
639,0.00116148515318736
640,0.001159966702976
641,0.00115695939916328
642,0.00115240484367933
643,0.00114671805908712
644,0.0011405907496583
645,0.00113452604292316
646,0.00112847617635605
647,0.00112240080751531
648,0.00111676596351118
649,0.00111220151458188
650,0.00110908538287033
651,0.0011074433125524
652,0.00110744781930477
653,0.00110852272113197
654,0.0011097077147082
655,0.00111040459968819
656,0.0011107198051311
657,0.00111056892032757
658,0.00111030794377501
659,0.0011105669035521
660,0.00111172381650604
661,0.00111358427806276
662,0.00111601271120216
663,0.0011189610806712
664,0.00112234932771484
665,0.00112604144156511
666,0.00113001183906666
667,0.00113437407888977
668,0.00113829644113829
669,0.0011405393518435
670,0.00114035906662418
671,0.00113779766331564
672,0.00113259862157766
673,0.00112572012829638
674,0.00111875916161536
675,0.00111269040310069
676,0.00110732881324713
677,0.00110284293687997
678,0.00109843953391255
679,0.0010927690464005
680,0.0010850217395772
681,0.00107554924391561
682,0.00106454918588572
683,0.0010522820433112
684,0.00103918194589816
685,0.00102567596243796
686,0.00101177863375297
687,0.000997308828053114
688,0.000983671977191783
689,0.000972932815978429
690,0.000966330185298725
691,0.000963743038520612
692,0.000965472677750135
693,0.000970100006627633
694,0.00097525986455368
695,0.000979426649358909
696,0.000982841577991368
697,0.000985369939312717
698,0.000987365771585518
699,0.000989596648263554
700,0.000992523113419095
701,0.000995722875227227
702,0.000998755483453138
703,0.00100202313608428
704,0.00100619616309976
705,0.00101149568761015
706,0.00101776884006722
707,0.00102534956489608
708,0.0010320249153406
709,0.00103440843826873
710,0.0010304682618012
711,0.00102076206206187
712,0.00100540335802309
713,0.000985752826467914
714,0.000964078262034729
715,0.000942145148082174
716,0.000919843271883884
717,0.000896878039590625
718,0.000875936840175374
719,0.000860823977633755
720,0.000853822034363147
721,0.000854773939792442
722,0.000864249334327133
723,0.000879553065735457
724,0.000896193213631146
725,0.000911207342484964
726,0.000925027569424274
727,0.000937489060619186
728,0.000948614135326734
729,0.000958885464471097
730,0.000968592650606781
731,0.000977152612079976
732,0.000983893687072733
733,0.000989781016502304
734,0.00099642316856411
735,0.00100463431964896
736,0.00101416105576282
737,0.00102540775542616
738,0.00103589963245727
739,0.00104176365076402
740,0.00104067598869113
741,0.00103301220514231
742,0.0010183102823635
743,0.000998980500860328
744,0.000979039994808829
745,0.000961021189624287
746,0.000944490887169443
747,0.000929760140671889
748,0.000915640118722665
749,0.000899945860790724
750,0.00088136639055744
751,0.000860814341020521
752,0.000839181818492612
753,0.000815975059981989
754,0.000790371127169104
755,0.000762355691922685
756,0.000732219280785259
757,0.000699191932353847
758,0.000668561758224697
759,0.000648343219624127
760,0.000643344993287931
761,0.000652596084855878
762,0.000676464389816436
763,0.000710744330305573
764,0.000748426609883245
765,0.000784625182867715
766,0.000819908977704706
767,0.0008543895337662
768,0.000885467750739159
769,0.000909945907798037
770,0.000925905372447499
771,0.000933089388217972
772,0.000930649824054354
773,0.000921610199976653
774,0.000911009716018212
775,0.000902184064175188
776,0.000894653409234036
777,0.000888585414432153
778,0.000884078279511009
779,0.000880775384079475
780,0.000878462755902875
